Solution of odeint manual problem
t value, x(t) value, y(t) value
0, 10 5
0.00394530483986938, 9.8601625698353 5.13861165253019
0.00776134673779656, 9.72169053423079 5.27353455516289
0.0115495290738554, 9.58125890256897 5.40811831186442
0.0153756191204156, 9.43658583846115 5.54451100830861
0.0192871763859824, 9.28592082428698 5.68422360899689
0.023322704520508, 9.1277678520158 5.82842303388625
0.0275164589549241, 8.96074055284609 5.97807746870228
0.0319001655525399, 8.78352468284412 6.13399132169259
0.0365012420679322, 8.59498142255075 6.2967134018073
0.0413356941502817, 8.39448175282022 6.46625986591535
0.0463937254033066, 8.18256637425401 6.64160639611537
0.0516214561351491, 7.96178668566441 6.82011551241348
0.0569149330736018, 7.73700316033395 6.99749845345661
0.0621440272651512, 7.51432904564534 7.16885530183267
0.0671944675768592, 7.29921486337579 7.33022475466146
0.0717212863461322, 7.10678765293246 7.47104476742282
0.0760860363444133, 6.92193332508361 7.60311728599811
0.0802556772667715, 6.74625515312779 7.72565311683814
0.0842264166633187, 6.58002581524535 7.83885308017252
0.0880103790080314, 6.42278413233608 7.94340619979636
0.0916266564531128, 6.27374098372454 8.04017328007142
0.0950961166236314, 6.13201684101189 8.13001630314577
0.0984387574630558, 5.99676374741939 8.21372046620915
0.101672573565107, 5.86721828613273 8.29196770593849
0.104813235715254, 5.74271727246256 8.36533577051861
0.107874166654596, 5.62269521681636 8.43430827889585
0.110866783148356, 5.50667408390542 8.4992882717629
0.113800786002117, 5.39425077077299 8.56061172852022
0.116684441910106, 5.28508487564685 8.61855960684348
0.119524834000537, 5.17888781980785 8.6733679865971
0.122328074510948, 5.07541362747574 8.72523636464227
0.125099480750724, 4.97445131666337 8.77433432862817
0.127843718641966, 4.87581871167918 8.82080688377151
0.130564918988828, 4.77935744924918 8.86477869284062
0.133266771436135, 4.68492895896289 8.90635745364583
0.135952600470295, 4.5924112262152 8.94563659793385
0.13862542709925, 4.50169617798988 8.98269745823763
0.141288019164799, 4.412687562367 9.01761101756169
0.14394293264547, 4.32529921909771 9.05043933113357
0.146592545814607, 4.23945366042952 9.08123668922724
0.149239087720719, 4.15508089888312 9.11005057436844
0.151884662142417, 4.07211747248964 9.13692245416255
0.154531267923891, 3.9905056287689 9.16188844174622
0.157180816405182, 3.91019263708283 9.18497984880119
0.159835146512937, 3.83113020546028 9.2062236506637
0.162496037962211, 3.75327398298825 9.22564287891489
0.16516522293079, 3.67658313273706 9.2432569536401
0.167844396498298, 3.6010199631964 9.25908196506707
0.170535226088684, 3.52654960854749 9.27313091236091
0.173239360112829, 3.45313974993749 9.28541390583575
0.175958435975457, 3.3807603713732 9.29593833764196
0.17869408758515, 3.30938354500143 9.30470902502944
0.181447952486529, 3.23898324146058 9.31172832951557
0.184221678718429, 3.16953516172349 9.31699625465919
0.187016931490226, 3.10101658744579 9.32051052462702
0.189835399759756, 3.03340624731592 9.32226664531022
0.192678802789938, 2.96668419729677 9.3222579493896
0.195548896756947, 2.9008317129726 9.32047562643983
0.198447481480285, 2.83583119248246 9.31690873889719
0.201376407344174, 2.77166606874324 9.3115442244803
0.204337582480228, 2.70832072985206 9.30436688544173
0.20733298028326, 2.64578044671393 9.29535936483474
0.210364647335346, 2.58403130707358 9.2845021097969
0.213434711817871, 2.52306015524385 9.27177332167793
0.216545392497328, 2.46285453692146 9.25714889266765
0.219699008378151, 2.40340264856621 9.24060232840867
0.222897989125018, 2.34469329089663 9.22210465590404
0.226144886367951, 2.28671582612363 9.20162431584966
0.229442386016402, 2.22946013860856 9.17912703833282
0.232793321723514, 2.17291659869386 9.15457570063951
0.236200689659102, 2.11707602951615 9.12793016570319
0.239667664769937, 2.06192967667622 9.09914709950598
0.243197618728744, 2.00746918071028 9.06817976551094
0.24679413979926, 1.95368655238609 9.03497779396457
0.250461054873838, 1.90057415094147 8.99948692366817
0.254202453972339, 1.848124665496 8.96164871358692
0.258022717526308, 1.79633110000912 8.9214002214653
0.26192654680975, 1.74518676233846 8.8786736464768
0.265918997915991, 1.69468525818658 8.83339593290187
0.270005519716318, 1.64482049103092 8.78548833197242
0.274191996266135, 1.59558666953792 8.73486591945393
0.278484794140826, 1.546978324503 8.6814370674229
0.282890815174844, 1.49899033808397 8.62510287028853
0.2874175550251, 1.45161798907318 8.56575652777749
0.292073167854529, 1.40485701927607 8.50328269191453
0.296866537188374, 1.35870372785653 8.4375567918295
0.301807352564272, 1.31315510294112 8.36844436076065
0.306906190870029, 1.26820900306806 8.29580040576701
0.312174600076267, 1.22386440550898 8.21946888515396
0.317625181178543, 1.18012174442797 8.13928239544558
0.323271661200486, 1.13698336965034 8.05506222459367
0.32912894555113, 1.09445416680391 7.96661900883158
0.3352131311529, 1.05254239177406 7.87375434734209
0.34154145164049, 1.01126078596485 7.77626389349884
0.348132111578573, 0.970628051098478 7.6739426640922
0.35500394741054, 0.930670766747745 7.56659358870665
0.362175829503394, 0.891425817069268 7.45404063069123
0.3696656966292, 0.852943330699329 7.33614805212752
0.37748910350874, 0.815289990578826 7.21284734376201
0.38565718812807, 0.778552290620157 7.08417258055089
0.394174067200855, 0.742838876155723 6.95030289495895
0.403033885775855, 0.708280571841548 6.81160687311904
0.412218079412984, 0.675026343687638 6.66867831036976
0.42169374127756, 0.643233766038256 6.52234817620791
0.431414066828046, 0.613054040710371 6.37365817253765
0.441321414469892, 0.584614045983057 6.22379062705176
0.451352605159192, 0.557999991663931 6.07396575539189
0.461445165593206, 0.533247376660517 5.92533153521977
0.471542894089322, 0.510339674623244 5.77887400131455
0.481599567656724, 0.489214929140592 5.63536548619581
0.49158044191611, 0.469777169384934 5.49535292875111
0.501461906153429, 0.451909117073648 5.35917677611225
0.511229981029384, 0.435483573870479 5.2270068588242
0.520878327593815, 0.420372205499072 5.09888331627646
0.530406245581716, 0.406451508026252 4.97475478843417
0.539816924723145, 0.393606345109885 4.85451011221571
0.549116048364243, 0.381731659591823 4.73800258453668
0.558310748892666, 0.370732947367123 4.62506741146007
0.567408866523042, 0.360525968187771 4.51553359697321
0.576418448035358, 0.35103603603357 4.40923161945027
0.585347424504414, 0.342197116994985 4.30599808371853
0.594203416773025, 0.333950875856342 4.20567829302035
0.602993628793239, 0.326245752335549 4.108127444572
0.611724799357826, 0.319036108681667 4.01321094985208
0.620403191232248, 0.312281466115321 3.92080422417379
0.629034603182497, 0.30594583348986 3.83079217543072
0.637624395136709, 0.299997123916698 3.74306854105846
0.64617752007826, 0.294406651434152 3.65753516687627
0.654698558589815, 0.289148698464777 3.57410128444605
0.663191753538604, 0.284200144766069 3.4926828193701
0.671661043435138, 0.279540149201326 3.413201747467
0.680110093674842, 0.275149876569276 3.33558550611862
0.688542325302098, 0.271012262722547 3.25976646226696
0.696960941201423, 0.267111812164711 3.1856814351983
0.70536894977735, 0.26343442319024 3.11327127047542
0.713769186271609, 0.259967236400998 3.04248046057222
0.722164331908839, 0.256698503094927 2.97325680753977
0.730556931077494, 0.253617470584351 2.9055511231434
0.738949406751658, 0.250714281973666 2.8393169622001
0.747344074349483, 0.247979888321311 2.77451038521895
0.755743154209187, 0.245405971440297 2.71108974684761
0.764148782846981, 0.24298487586584 2.6490155070215
0.772563023144378, 0.240709548746988 2.58825006208159
0.780987873596243, 0.238573486609394 2.52875759346385
0.789425276735936, 0.236570688095107 2.47050393186474
0.797877126840397, 0.234695611918047 2.41345643505377
0.806345277005944, 0.232943139385011 2.3575838777378
0.814831545674906, 0.231308540925566 2.30285635208553
0.823337722683892, 0.229787446152937 2.2492451776977
0.831865574896387, 0.228375817044538 2.19672281996198
0.840416851475316, 0.227069923887251 2.14526281586462
0.848993288845178, 0.225866323680485 2.09483970644594
0.857596615388063, 0.224761840731025 2.04542897518657
0.866228555913444, 0.223753549208657 1.99700699169789
0.874890835937738, 0.222838757461671 1.94955096016488
0.8835851858064, 0.222014993917237 1.90303887205517
0.892313344688533, 0.221279994414061 1.85744946266436
0.901077064471669, 0.220631690834194 1.8127621711175
0.909878113582445, 0.220068200917798 1.76895710348944
0.918718280757317, 0.219587819159526 1.72601499874475
0.927599378786171, 0.219189008698178 1.68391719723066
0.936523248250706, 0.218870394122858 1.64264561148583
0.945491761278739, 0.218630755129042 1.60218269915286
0.95450682533508, 0.218469020967129 1.56251143780514
0.963570387069354, 0.218384265634282 1.52361530151852
0.972684436241136, 0.218375703767794 1.48547823903536
0.981851009742846, 0.218442687205053 1.44808465338469
0.991072195741289, 0.218584702181462 1.41141938283525
1.00035013795922, 0.218801367143543 1.37546768307108
1.00968704011909, 0.219092431159987 1.34021521048974
1.01908517057215, 0.219457772918704 1.30564800653323
1.02854686713714, 0.219897400303063 1.27175248297047
1.03807454217438, 0.220411450545515 1.23851540805778
1.04767068792246, 0.221000190961833 1.20592389351113
1.05733788212696, 0.221664020274224 1.17396538223022
1.06707879399239, 0.222403470536784 1.1426276367203
1.07689619049133, 0.223219209682108 1.11189872816284
1.08679294306725, 0.224112044713528 1.08176702609133
1.09677203477066, 0.225082925573457 1.05222118863273
1.10683656787177, 0.226132949724721 1.02325015327952
1.11698977199641, 0.227263367488785 0.994843128161475
1.12723501283648, 0.228475588192343 0.966989583789807
1.13757580149065, 0.229771187182164 0.939679245250538
1.14801580449624, 0.23115191377731 0.912902084827519
1.15855885461891, 0.232619700238154 0.886648315039456
1.16920896247279, 0.234176671843125 0.860908382079264
1.17997032905039, 0.235825158176973 0.835672959648343
1.19084735924881, 0.237567705748782 0.810932943182901
1.20184467648628, 0.239407092074281 0.786679444474496
1.21296713851123, 0.241346341375281 0.762903786692573
1.22421985451436, 0.243388742069808 0.739597499823137
1.23560820366264, 0.245537866249834 0.716752316545009
1.24713785518267, 0.247797591369857 0.694360168573549
1.25881479012872, 0.250172124399318 0.672413183511589
1.27064532497773, 0.252666028725252 0.650903682258843
1.2826361371991, 0.25528425412916 0.629824177044625
1.29479429294969, 0.258032170204054 0.609167370164665
1.30712727704344, 0.260915603624451 0.588926153521574
1.3196430253386, 0.263940879733807 0.569093609090618
1.33234995967051, 0.267114868970632 0.549663010458315
1.34525702543302, 0.270445038716102 0.530627825611619
1.35837373187077, 0.273939511211568 0.511981721190553
1.3717101950842, 0.277607128262958 0.493718568457597
1.385277183662, 0.281457523518298 0.475832451283388
1.39908616673202, 0.285501203171153 0.458317676500468
1.41314936405235, 0.289749636001496 0.441168787034804
1.42747979753272, 0.294215353708524 0.424380578288145
1.44209134326601, 0.298912062506172 0.40794811831139
1.45699878273759, 0.303854766925408 0.391866772377931
1.47221785133759, 0.309059906675441 0.376132232632278
1.48776528159487, 0.314545507227436 0.360740553547345
1.5036588376395, 0.320331344456621 0.345688193964606
1.51991733623591, 0.326439123153937 0.330972066501901
1.53656064825855, 0.332892668420308 0.316589595075364
1.55360967265216, 0.339718127785576 0.302538781168047
1.57108627268385, 0.346944180225024 0.28881827925105
1.5890131616314, 0.354602245927593 0.275427481371067
1.60741372199232, 0.362726687530553 0.262366610290213
1.62631173897033, 0.371354989403962 0.249636819605359
1.64573102570079, 0.380527896314805 0.237240297865798
1.66569491498504, 0.390289486413876 0.22518037171117
1.68622559118764, 0.400687146204111 0.213461600327595
1.70734323791243, 0.411771407641368 0.202089849977878
1.72906498422161, 0.423595601146487 0.191072333045951
1.75140364711612, 0.436215275365526 0.180417591269516
1.77436629341921, 0.449687338354638 0.170135398411134
1.79795268176479, 0.46406888964251 0.160236554989429
1.82215369400776, 0.479415742336693 0.150732549033669
1.84694991901932, 0.495780681010153 0.141635064754567
1.87231059787835, 0.513211561639488 0.132955337749752
1.89819315931458, 0.531749424153418 0.124703381208099
1.92454354812645, 0.551426838360111 0.116887139329487
1.95129746539756, 0.572266718759675 0.109511654322621
1.97838250402831, 0.594281806734274 0.102578351482596
2.00572100535517, 0.617474928633578 0.0960845436632377
2.03323332695153, 0.64184001414149 0.0900232286926061
2.06084114034261, 0.667363734829285 0.0843832066516607
2.08847039111306, 0.694027533040562 0.0791494915360606
2.1160536432299, 0.721809777737858 0.0743039484974184
2.14353166109222, 0.750687807352291 0.0698260639406493
2.17085421649012, 0.780639683162278 0.0656937537071648
2.19798021198792, 0.81164555598677 0.0618841298372483
2.22487727291969, 0.843688622496447 0.0583741709021571
2.25152097872988, 0.876755702244879 0.0551412667632235
2.27789389185485, 0.910837498749557 0.0521636304622759
2.30398451242162, 0.94592862025008 0.0494205853643585
2.32978625144525, 0.982027433822585 0.0468927445790248
2.355296481753, 1.01913581635858 0.044562103305165
2.38051569853678, 1.05725885239453 0.0424120647257269
2.40544680138313, 1.09640451516436 0.0404274179489155
2.43009449631302, 1.13658335533115 0.0385942834156331
2.45446480848192, 1.17780821235095 0.0369000379363274
2.47856469228257, 1.22009395637412 0.0353332285198167
2.50240172435063, 1.26345726369612 0.0338834816114653
2.52598386536711, 1.30791642559699 0.0325414123190433
2.54931927783493, 1.35349118852193 0.031298536640663
2.5724161886831, 1.40020262257324 0.0301471885521204
2.59528278730896, 1.44807301490629 0.0290804429823587
2.61792715133136, 1.49712578462273 0.0280920451312434
2.64035719380753, 1.54738541597332 0.027176346199495
2.66258062693273, 1.59887740701328 0.0263282453547443
2.68460493829521, 1.6516282312241 0.0255431376101501
2.70643737661772, 1.70566530998674 0.0248168672126685
2.7280849446057, 1.76101699413724 0.0241456861047812
2.7495543970689, 1.81771255314613 0.0235262170203884
2.7708522429122, 1.87578217073403 0.0229554207914973
2.79198474992663, 1.93525694596831 0.0224305674695703
2.81295795157115, 1.99616889908185 0.0219492108987572
2.83377765513619, 2.05855098142078 0.0215091664142938
2.85444945083485, 2.12243708906687 0.021108491375952
2.8749787214857, 2.18786207979687 0.0207454682822715
2.89537065254225, 2.25486179314041 0.0204185902456875
2.91563024229413, 2.32347307338283 0.0201265486412881
2.93576231211779, 2.39373379543348 0.0198682227727564
2.95577151669639, 2.46568289354653 0.0196426714282152
2.9756623541597, 2.5393603929423 0.0194491262264614
2.99543917611984, 2.61480744443502 0.0192869866807961
3.01510619759814, 2.69206636223032 0.0191558169337352
3.03466750685393, 2.77118066511367 0.0190553441417703
3.05412707513935, 2.8521951213122 0.0189854585155574
3.07348876641504, 2.93515579737821 0.0189462150479933
3.09275634707175, 3.02011011151572 0.0189378369912278
3.11193349571259, 3.10710689185352 0.0189607211744599
3.13102381305982, 3.19619644026191 0.0190154452881984
3.15003083206013, 3.28743060241902 0.0191027772984862
3.16895802827363, 3.38086284495941 0.0192236871975208
3.18780883064348, 3.4765483406863 0.0193793613465139
3.20658663275782, 3.57454406300559 0.0195712197241689
3.22529480473206, 3.67490889094943 0.0198009364618376
3.24393670585957, 3.77770372640821 0.0200704641267497
3.2625156982023, 3.88299162549092 0.0203820623108183
3.28103516132164, 3.99083794629794 0.0207383311983263
3.29949850838443, 4.10131051582993 0.021142250926273
3.31790920392094, 4.21447981929291 0.0215972277226225
3.33627078356338, 4.33041921571327 0.0221071480182865
3.35458687615671, 4.44920518457991 0.0226764419888841
3.3728612287114, 4.57091760921995 0.0233101583058189
3.39109773476484, 4.69564010384037 0.0240140522809185
3.40930046683843, 4.82346039269301 0.024794690098467
3.42747371382848, 4.9544707517289 0.0256595724744532
3.44562202435968, 5.08876852550816 0.0266172819076057
3.46375025737088, 5.22645673516764 0.0276776587476682
3.4818636415112, 5.36764479711261 0.0288520126818687
3.49996784531981, 5.51244937704489 0.0301533780390646
3.51806906067478, 5.66099541031431 0.0315968236839321
3.53617410266332, 5.81341732784772 0.0331998314343915
3.55429052990178, 5.96986053770574 0.034982761189219
3.57242679049367, 6.13048322650895 0.0369694267404443
3.59059240036116, 6.29545856375423 0.0391878142126116
3.60879816276647, 6.46497741703965 0.0416709861776242
3.62705644065804, 6.63925171966277 0.0444582301853051
3.64538149731938, 6.81851867695123 0.0475965329375429
3.66378992606073, 7.00304605794059 0.0511424940545402
3.68230119690695, 7.19313889939735 0.0551648417604868
3.70093835806685, 7.38914805454532 0.0597477855509573
3.7197289431211, 7.59148115130121 0.0649955521373202
3.73870615165344, 7.8006166751833 0.071038623930893
3.75791039001914, 8.01712201556354 0.0780424723197044
3.77739127271258, 8.24167626232636 0.0862200131919955
3.7972101677097, 8.47509787036334 0.095849704972674
3.81744324065306, 8.7183747369052 0.107302280264596
3.83818446744131, 8.97268604216321 0.121080584540685
3.85954650518245, 9.23938061470452 0.137878253912479
3.88165250363577, 9.51980539842555 0.158660210520306
3.90459865826141, 9.8146883387606 0.184745274652397
3.92834062798017, 10.1224172944158 0.217780564339575
3.95246226043419, 10.4356989494769 0.259303269694841
3.97429407983644, 10.7173354412446 0.305678924753217
3.99209064435454, 10.9435050075779 0.351206639073526
4.00790036865655, 11.140216897596 0.398668766282063
4.0217500612141, 11.3079419045447 0.44664361604613
4.03395086874365, 11.4510599900266 0.494627601776234
4.04483453879155, 11.5741940991109 0.542567794532489
4.05467378762935, 11.6811227453396 0.590574882958854
4.06367540871181, 11.7747030874882 0.638792157169899
4.07238842264087, 11.8608739702395 0.689752666949328
4.08027047862396, 11.9346052913784 0.739821676586433
4.08789169685028, 12.0016508775575 0.792114731391987
4.09519181713233, 12.0615452939923 0.846062543211031
4.10215104190807, 12.1143167257438 0.901265346918595
4.10877365973631, 12.1602609583831 0.957455817203604
4.11507693152782, 12.1997954351649 1.01446407010308
4.12108408858844, 12.2333730056845 1.07218863255342
4.12682019652492, 12.2614353255325 1.1305742110136
4.13230987620241, 12.2843905661441 1.18959558163614
4.13757616454711, 12.302605059329 1.24924639121604
4.14264004236519, 12.3164023845753 1.30953163272948
4.14752033291014, 12.3260660661683 1.37046274429893
4.15223379272764, 12.3318437317753 1.4320545175324
4.15679529106947, 12.3339515960486 1.49432321974421
4.16121801996318, 12.3325787150146 1.55728551097805
4.16551370427789, 12.3278907782783 1.62095786924829
4.16969279690073, 12.3200333747198 1.68535633253396
4.17376465298227, 12.3091347496734 1.75049643224883
4.17773768195898, 12.295308106746 1.81639323790432
4.1816194784449, 12.2786535179817 1.88306146268765
4.1854169341373, 12.2592595046051 1.95051559935189
4.18913633321157, 12.2372043439211 2.01877006850559
4.19278343364026, 12.2125571496521 2.08783936943914
4.19636353665893, 12.1853787647959 2.1577382286353
4.19988154632597, 12.1557224987236 2.22848174416495
4.20334202084212, 12.1236347339493 2.3000855259827
4.20674921703462, 12.0891554227803 2.37256583318385
4.21010712918257, 12.0523184897737 2.44593970986971
4.21341952316622, 12.0131521524369 2.52022512158973
4.21668996676256, 11.9716791697547 2.59544109451163
4.21992185677781, 11.9279170257695 2.67160785959426
4.22311844360243, 11.8818780534664 2.74874700415294
4.22628285369025, 11.8335695025125 2.82688163334629
4.22941811039786, 11.7829935528969 2.90603654430061
4.2325271535713, 11.7301472751291 2.9862384158398
4.23561285823082, 11.6750225363257 3.06751601712244
4.2386780526808, 11.6176058501796 3.14990043891943
4.24172553635902, 11.557878167409 3.23342535181571
